 Fe Density=7.874
 Energy(eV), Delta, Beta
  30.  0.299820632  0.209373653
  30.4181843  0.293040991  0.202679574
  30.8421955  0.286254823  0.196199834
  31.2721214  0.279482007  0.189927116
  31.7080383  0.272724241  0.18385531
  32.150032  0.26599884  0.177976966
  32.5981827  0.259325415  0.172287151
  33.0525818  0.252711177  0.166779235
  33.5133171  0.246170118  0.161447138
  33.9804764  0.23972398  0.156268463
  34.4541473  0.233377844  0.151203215
  34.9344177  0.227017909  0.146231189
  35.4213829  0.220661223  0.141422808
  35.9151382  0.214348391  0.136772007
  36.4157791  0.208085284  0.132274419
  36.9233932  0.201874554  0.127924815
  37.4380875  0.195717201  0.123718061
  37.9599533  0.189614013  0.119649753
  38.4890938  0.183565065  0.115715049
  39.0256119  0.177543014  0.111910261
  39.5696068  0.171575069  0.108230032
  40.1211853  0.165669397  0.104671054
  40.6804543  0.159857303  0.10120821
  41.2475166  0.154086933  0.0977522731
  41.8224831  0.148259878  0.0942648947
  42.405468  0.142339706  0.0909016132
  42.9965744  0.136315823  0.0876585692
  43.5959282  0.13021116  0.08453127
  44.2036324  0.124028705  0.081515342
  44.8198051  0.117750123  0.078606993
  45.4445686  0.111351065  0.0758026317
  46.0780411  0.104799852  0.073098354
  46.7203445  0.0980565548  0.0704902336
  47.3715973  0.0910185575  0.0679755658
  48.0319328  0.0835538432  0.065550372
  48.7014732  0.0756056085  0.0632116869
  49.3803444  0.0670108199  0.060948953
  50.0686798  0.0574699193  0.058716394
  50.7666092  0.0464665592  0.0565127134
  51.4742699  0.0331962258  0.054561276
  52.1917915  0.0163505003  0.0537022948
  52.9193192 -0.0121397953  0.053574115
  53.6569862 -0.0550713167  0.0814445987
  54.4049339 -0.0553460307  0.138440549
  55.163311 -0.026975669  0.18432194
  55.9322586  0.00387108373  0.189371333
  56.7119217  0.0268277619  0.191016778
  57.5024567  0.0429863334  0.189653888
  58.3040123  0.0587348677  0.187739164
  59.1167336  0.0718135387  0.179993942
  59.9407921  0.0818168595  0.171720862
  60.7763329  0.0897744298  0.163038671
  61.6235237  0.0957461298  0.153806582
  62.4825172  0.0994221047  0.144544125
  63.3534927  0.101477563  0.135839581
  64.2366028  0.102328166  0.127658904
  65.1320343  0.102203645  0.119970791
  66.0399323  0.101197436  0.112746149
  66.960495  0.0990593508  0.106030174
  67.8938904  0.0963784903  0.10070166
  68.8402939  0.0939247981  0.0968111232
  69.7998886  0.0919431001  0.0930708125
  70.7728577  0.0900781229  0.089475058
  71.7593994  0.0882041231  0.0860181078
  72.7596817  0.0862659812  0.0826948583
  73.7739182  0.0841972828  0.0794999152
  74.8022842  0.0818268582  0.0766081735
  75.844986  0.0793749616  0.0742213428
  76.9022217  0.0773128122  0.0723443106
  77.9741974  0.0755047947  0.0705147386
  79.0611115  0.0738560632  0.0687314942
  80.1631851  0.072298646  0.066993311
  81.2806168  0.0708126202  0.0652990937
  82.4136276  0.0693843961  0.0636476874
  83.5624237  0.068004109  0.0620380715
  84.7272415  0.066664122  0.0604691841
  85.9082947  0.0653583184  0.0589399599
  87.1058121  0.0640804097  0.0574493706
  88.320015  0.0628145859  0.0559992604
  89.5511475  0.0615816414  0.0546232797
  90.7994385  0.0603896976  0.0532944538
  92.0651398  0.0592367128  0.0519979708
  93.3484802  0.0581164807  0.0507330261
  94.649704  0.0570245422  0.0494988076
  95.9690704  0.0559594408  0.0482946858
  97.3068314  0.0549200922  0.0471198186
  98.6632385  0.0539042316  0.0459735133
  100.038544  0.0529111773  0.0448551141
  101.433029  0.0519403704  0.0437639356
  102.846954  0.0509916134  0.0426992998
  104.280579  0.0500654615  0.041660551
  105.734192  0.049164895  0.0406471007
  107.208076  0.0482856147  0.0396431945
  108.702492  0.0474179126  0.0386607423
  110.217751  0.0465644188  0.0377019905
  111.754128  0.0457265899  0.0367670171
  113.311913  0.0449052975  0.0358552411
  114.891418  0.0441010855  0.0349660777
  116.492943  0.0433142856  0.0340989269
  118.116798  0.0425475836  0.0332533494
  119.763275  0.041801054  0.0324286856
  121.432716  0.0410772674  0.0316244885
  123.125427  0.0403841585  0.0308402535
  124.841721  0.0397285931  0.0300540682
  126.581955  0.0390940048  0.0292447414
  128.346436  0.0384326205  0.0284224954
  130.135513  0.0377600938  0.0276234131
  131.949539  0.037087325  0.0268467776
  133.788834  0.0364189148  0.0260919798
  135.653778  0.0357569009  0.025358405
  137.544724  0.0351029076  0.0246454459
  139.462021  0.0344582498  0.0239525251
  141.406052  0.0338241719  0.0232790913
  143.377167  0.0332024246  0.022624597
  145.375778  0.0325986855  0.0219885111
  147.402222  0.0320225023  0.021354666
  149.45694  0.0314432494  0.0207165871
  151.540268  0.0308576096  0.0200874656
  153.652664  0.0302718561  0.01947744
  155.794495  0.0296897404  0.0188859701
  157.966202  0.0291131884  0.0183124579
  160.168167  0.0285432935  0.0177563261
  162.400818  0.0279809926  0.0172171053
  164.664597  0.0274269637  0.0166942738
  166.95993  0.0268818475  0.0161873046
  169.287262  0.0263460521  0.0156957209
  171.647034  0.0258198641  0.0152190831
  174.039703  0.0253036171  0.0147569245
  176.465729  0.0247980971  0.014308773
  178.925552  0.0243040621  0.0138742551
  181.419678  0.0238223337  0.0134529369
  183.948563  0.0233543571  0.0130443973
  186.512726  0.0229031574  0.0126482649
  189.112595  0.0224779863  0.0122603737
  191.748734  0.0220865533  0.0118662808
  194.4216  0.0216754023  0.0114191044
  197.131729  0.0212429687  0.0109887505
  199.879639  0.0208021514  0.0105746146
  202.665863  0.0203584395  0.0101760915
  205.490906  0.0199147686  0.00979260169
  208.355347  0.0194726996  0.00942355115
  211.259705  0.0190332122  0.00906838104
  214.204544  0.0185965654  0.00872665271
  217.190445  0.0181619059  0.00839776266
  220.217957  0.0177291781  0.00808126852
  223.287674  0.0172922947  0.00777751114
  226.400192  0.0168614555  0.00750303874
  229.556091  0.0164459571  0.00725466292
  232.755981  0.0160475466  0.00701451115
  236.000458  0.0156631842  0.006782318
  239.290176  0.0152899949  0.00655779382
  242.625763  0.0149269104  0.0063407151
  246.007828  0.0145734129  0.00613082247
  249.437057  0.0142291468  0.00592787145
  252.914062  0.0138938436  0.00573163945
  256.439545  0.0135673219  0.00554190623
  260.01416  0.0132495202  0.00535845058
  263.638641  0.0129407635  0.00518107042
  267.313599  0.0126413926  0.0050095669
  271.039825  0.0123519534  0.00484373141
  274.817963  0.0120814918  0.00467884913
  278.648773  0.0118188011  0.00450638728
  282.53299  0.0115511762  0.00432773028
  286.471375  0.0112797851  0.00415615318
  290.4646  0.0110105034  0.0039913808
  294.513519  0.0107442131  0.00383313582
  298.618896  0.0104819853  0.00368116936
  302.781494  0.0102241794  0.00353522319
  307.002106  0.00997105893  0.00339506799
  311.281525  0.00972285494  0.00326047419
  315.620605  0.00947976764  0.00313120685
  320.020203  0.00924196001  0.00300706807
  324.48111  0.00900964718  0.00288784597
  329.004181  0.00878336467  0.00277336151
  333.590363  0.00856742915  0.00266340864
  338.240417  0.00835666992  0.00254947506
  342.955322  0.00814610068  0.00243325648
  347.735901  0.00793471653  0.00232210709
  352.58316  0.0077251303  0.00221602828
  357.497986  0.00751789706  0.00211479096
  362.481323  0.00731360726  0.00201818603
  367.534119  0.00711261574  0.00192598964
  372.657349  0.00691491412  0.00183800643
  377.85199  0.00671943929  0.00175404456
  383.119019  0.00652614143  0.00167565083
  388.459473  0.0063375691  0.00160573411
  393.87439  0.00615744665  0.00154061615
  399.364807  0.00598493824  0.00147632638
  404.931732  0.00581543846  0.00141199247
  410.576233  0.00564883556  0.00134976511
  416.299469  0.00548544712  0.00129027979
  422.102448  0.00532549527  0.00123341754
  427.986359  0.00516901258  0.00117905962
  433.95224  0.00501598185  0.00112709391
  440.001282  0.00486611621  0.00107742217
  446.134674  0.00471958658  0.00102994184
  452.353577  0.00457631703  0.000984550919
  458.659119  0.00443621585  0.000941161416
  465.052582  0.00429919781  0.000899684441
  471.535156  0.00416518981  0.000860034197
  478.108093  0.00403410289  0.00082213222
  484.772644  0.00390563323  0.000785898708
  491.530151  0.00377991376  0.000751225394
  498.381775  0.00365673471  0.000717988762
  505.328979  0.00353596127  0.000686188403
  512.372986  0.00341751636  0.000655797077
  519.515198  0.00330131198  0.000626751513
  526.756958  0.00318721868  0.000598990591
  534.09967  0.00307492213  0.000572460995
  541.544739  0.00296425866  0.000547107018
  549.093506  0.00285520498  0.000522874296
  556.74762  0.00274759042  0.000499715621
  564.508362  0.00264120917  0.000477583497
  572.377319  0.00253581512  0.000456430396
  580.355957  0.00243112654  0.000436213944
  588.445801  0.00232658605  0.000416894647
  596.648438  0.00222124276  0.000399161334
  604.965332  0.00211584987  0.000382590224
  613.398315  0.00200981996  0.000366797671
  621.948669  0.00190228946  0.000351644208
  630.618347  0.00179213937  0.000336974976
  639.408813  0.0016779271  0.000322578009
  648.321838  0.00155767146  0.000308361225
  657.35907  0.00142444251  0.000294446771
  666.522278  0.00127391785  0.000281162153
  675.813293  0.00109484245  0.000268930191
  685.233704  0.000860424596  0.000257687381
  694.785522  0.000462090335  0.0002472013
  704.470398 -0.00103344559  0.000237246961
  714.290344  0.000321503059  0.00192554283
  724.247192  0.000789389713  0.0018376573
  734.342834  0.0010277133  0.00175379147
  744.579163  0.00117465656  0.00167376688
  754.958191  0.0012715949  0.00159741775
  765.481934  0.00133638782  0.00152456888
  776.152344  0.00137798174  0.00145517453
  786.971436  0.00140041206  0.00138945994
  797.941406  0.00140012708  0.00132825458
  809.06427  0.00139917957  0.00129608368
  820.342224  0.00140207377  0.00126626051
  831.777283  0.00140793447  0.00123712071
  843.371826  0.00141726469  0.00120864948
  855.127991  0.00143098563  0.00117628172
  867.047974  0.0014468889  0.00113293936
  879.134155  0.00145322818  0.00108070776
  891.388855  0.00144795806  0.00103090354
  903.814331  0.00143849221  0.000983383972
  916.413025  0.00142552087  0.000938044919
  929.187317  0.00140989374  0.00089510408
  942.139648  0.00139233621  0.00085447228
  955.272583  0.00137333781  0.000815815758
  968.588562  0.00135321822  0.000779022055
  982.09021  0.00133208558  0.000743871846
  995.779968  0.00131021091  0.000710293767
  1009.66058  0.00128782436  0.000678208948
  1023.7348  0.00126502488  0.000647479435
  1038.005  0.00124190527  0.000617998594
  1052.47424  0.00121851149  0.000589694944
  1067.14514  0.0011948077  0.000562532106
  1082.02051  0.001170806  0.00053661433
  1097.10339  0.00114669732  0.000511892897
  1112.39636  0.00112260086  0.0004883082
  1127.90259  0.00109858171  0.000465808844
  1143.62488  0.00107468863  0.000444349251
  1159.56641  0.00105096726  0.000423880178
  1175.73022  0.00102746219  0.000404351333
  1192.11926  0.00100419356  0.000385721796
  1208.73682  0.000981174526  0.00036795027
  1225.58594  0.000958509394  0.000350997259
  1242.66992  0.000936184661  0.000334765209
  1259.99194  0.000914202421  0.000319206621
  1277.55554  0.000892538112  0.000304285291
  1295.36401  0.000871149765  0.000289986201
  1313.42078  0.000850041222  0.000276362029
  1331.72913  0.000829252996  0.000263377675
  1350.29272  0.000808824552  0.000251000718
  1369.11511  0.000788766833  0.000239204048
  1388.19983  0.000769086997  0.000227962606
  1407.55054  0.000749791274  0.000217250781
  1427.17102  0.000730887579  0.000207042962
  1447.06506  0.000712386274  0.00019731361
  1467.23621  0.000694272981  0.000188028091
  1487.68884  0.000676576688  0.000179157578
  1508.42639  0.000659250887  0.000170636777
  1529.453  0.000642266066  0.000162492695
  1550.77271  0.000625626475  0.000154733614
  1572.38977  0.000609346433  0.000147345607
  1594.30786  0.000593429897  0.000140309727
  1616.53174  0.000577872735  0.000133609414
  1639.06531  0.000562669593  0.000127228224
  1661.91296  0.000547828269  0.000121152814
  1685.0791  0.00053334533  0.000115367759
  1708.56824  0.000519225548  0.000109858382
  1732.38477  0.000505462056  0.000104592051
  1756.53333  0.000492031162  9.95334922E-05
  1781.01831  0.000478912465  9.47021981E-05
  1805.84485  0.000466083235  9.0089532E-05
  1831.01721  0.000453559624  8.57016348E-05
  1856.54065  0.000441340235  8.15278472E-05
  1882.41992  0.000429422216  7.75576482E-05
  1908.65979  0.000417801901  7.37809969E-05
  1935.2655  0.000406475476  7.0188391E-05
  1962.24194  0.000395439158  6.67706699E-05
  1989.59473  0.000384674146  6.35185934E-05
  2017.32861  0.000374205527  6.04460765E-05
  2045.44897  0.000364016218  5.74925289E-05
  2073.96143  0.000354086864  5.4669832E-05
  2102.87134  0.00034440856  5.19829191E-05
  2132.18433  0.000334978977  4.94249834E-05
  2161.90576  0.000325794885  4.699079E-05
  2192.0415  0.000316848076  4.46733065E-05
  2222.59741  0.000308135612  4.24684149E-05
  2253.57935  0.000299652631  4.03708073E-05
  2284.99292  0.000291394623  3.83750448E-05
  2316.84448  0.000283355446  3.64754924E-05
  2349.13989  0.000275529339  3.46681081E-05
  2381.8855  0.000267911964  3.29499126E-05
  2415.08789  0.000260498287  3.13151904E-05
  2448.75293  0.000253283244  2.97600491E-05
  2482.88721  0.000246262469  2.8281107E-05
  2517.49707  0.000239430985  2.68747681E-05
  2552.58984  0.000232784034  2.55373416E-05
  2588.17163  0.000226316872  2.42655187E-05
  2624.24927  0.000220024813  2.30562473E-05
  2660.82983  0.000213904597  2.19065896E-05
  2697.92041  0.000207950492  2.08133042E-05
  2735.52783  0.000202158612  1.97740774E-05
  2773.65967  0.000196524619  1.87861824E-05
  2812.323  0.000191045081  1.7847191E-05
  2851.52539  0.000185715893  1.69546365E-05
  2891.27393  0.000180532821  1.61061471E-05
  2931.57666  0.000175491848  1.52997673E-05
  2972.44141  0.000170589396  1.45332697E-05
  3013.87549  0.000165821897  1.380506E-05
  3055.88745  0.000161185686  1.31128772E-05
  3098.48486  0.000156677561  1.24550443E-05
  3141.67603  0.000152293971  1.18299849E-05
  3185.46924  0.000148031424  1.12361195E-05
  3229.8728  0.000143886835  1.06718735E-05
  3274.89575  0.000139856493  1.01357064E-05
  3320.54614  0.000135937691  9.62627655E-06
  3366.83252  0.000132127519  9.14233897E-06
  3413.7644  0.000128423242  8.68256484E-06
  3461.35059  0.000124821614  8.24569543E-06
  3509.59961  0.00012131971  7.83069208E-06
  3558.52148  0.000117914962  7.43658484E-06
  3608.12549  0.0001146047  7.06218179E-06
  3658.4209  0.000111385802  6.70640338E-06
  3709.41724  0.00010825663  6.36862887E-06
  3761.12451  0.000105214451  6.0477023E-06
  3813.55249  0.000102256636  5.74286651E-06
  3866.71143  9.93807553E-05  5.45337298E-06
  3920.61133  9.6584663E-05  5.17841954E-06
  3975.26221  9.38663725E-05  4.91734136E-06
  4030.67554  9.12232936E-05  4.66929623E-06
  4086.86084  8.86535199E-05  4.43381759E-06
  4143.82959  8.61550652E-05  4.21007599E-06
  4201.59229  8.37256739E-05  3.99762757E-06
  4260.16016  8.13635415E-05  3.79589642E-06
  4319.54443  7.9066951E-05  3.60427407E-06
  4379.75635  7.6833785E-05  3.42230919E-06
  4440.80811  7.46621809E-05  3.24955886E-06
  4502.71045  7.2550305E-05  3.08558265E-06
  4565.47559  7.0496666E-05  2.92975164E-06
  4629.11572  6.84995612E-05  2.78183416E-06
  4693.64355  6.65572879E-05  2.64142477E-06
  4759.07031  6.46682747E-05  2.50806806E-06
  4825.40918  6.28309645E-05  2.381385E-06
  4892.67285  6.10439529E-05  2.26119005E-06
  4960.87402  5.93050863E-05  2.14691931E-06
  5030.02588  5.76134953E-05  2.03852574E-06
  5100.14209  5.59675391E-05  1.93561118E-06
  5171.23486  5.43659989E-05  1.83786733E-06
  5243.31885  5.28074743E-05  1.74505954E-06
  5316.4082  5.12904044E-05  1.65695633E-06
  5390.51611  4.98134577E-05  1.57326201E-06
  5465.65723  4.83749427E-05  1.49387415E-06
  5541.84521  4.69736151E-05  1.41845328E-06
  5619.09521  4.56083762E-05  1.34684535E-06
  5697.42285  4.42776727E-05  1.2788613E-06
  5776.8418  4.29801257E-05  1.2143139E-06
  5857.36768  4.17144147E-05  1.1530318E-06
  5939.01611  4.04789316E-05  1.09484517E-06
  6021.80273  3.92710863E-05  1.03960372E-06
  6105.74316  3.80887213E-05  9.87157364E-07
  6190.85449  3.69303707E-05  9.37363438E-07
  6277.15186  3.57934223E-05  8.90087279E-07
  6364.65137  3.46747547E-05  8.4519985E-07
  6453.37158  3.35703407E-05  8.02579962E-07
  6543.32812  3.24748835E-05  7.62121999E-07
  6634.53809  3.13781347E-05  7.23705398E-07
  6727.02051  3.02587559E-05  6.87230568E-07
  6820.7915  2.9090219E-05  6.52604797E-07
  6915.86914  2.77962408E-05  6.19728098E-07
  7012.27295  2.5997284E-05  5.88514752E-07
  7110.02002  1.74924789E-05  5.58883528E-07
  7209.12988  2.49542554E-05  4.25948019E-06
  7309.62109  2.52289265E-05  4.06090703E-06
  7411.51318  2.50454341E-05  3.8708281E-06
  7514.82617  2.47264561E-05  3.68897122E-06
  7619.57861  2.43303493E-05  3.51519566E-06
  7725.79102  2.3889037E-05  3.34914466E-06
  7833.48438  2.34203944E-05  3.19045785E-06
  7942.67969  2.29352408E-05  3.03885395E-06
  8053.396  2.24407886E-05  2.89405921E-06
  8165.65625  2.19403282E-05  2.75574803E-06
  8279.48047  2.14389838E-05  2.62368235E-06
  8394.89258  2.09397385E-05  2.49767686E-06
  8511.91211  2.04442622E-05  2.37738982E-06
  8630.56348  1.99537953E-05  2.26261295E-06
  8750.86914  1.94693221E-05  2.15315845E-06
  8872.85156  1.89916555E-05  2.04874254E-06
  8996.53418  1.85211684E-05  1.94923518E-06
  9121.94141  1.80583829E-05  1.85422834E-06
  9249.0957  1.7603872E-05  1.76371009E-06
  9378.02344  1.71580086E-05  1.67745486E-06
  9508.74805  1.67209564E-05  1.59526383E-06
  9641.29492  1.62927736E-05  1.51694974E-06
  9775.68848  1.58735438E-05  1.44232797E-06
  9911.95703  1.54632726E-05  1.37130235E-06
  10050.125  1.50617752E-05  1.30357603E-06
  10190.2178  1.46692364E-05  1.2390957E-06
  10332.2637  1.42856388E-05  1.17770026E-06
  10476.29  1.3910897E-05  1.1192501E-06
  10622.3232  1.35449081E-05  1.06361404E-06
  10770.3926  1.31875686E-05  1.01065928E-06
  10920.5264  1.28387892E-05  9.6026713E-07
  11072.7529  1.24982971E-05  9.12305097E-07
  11227.1006  1.21660714E-05  8.66666539E-07
  11383.6006  1.18420303E-05  8.23248058E-07
  11542.2822  1.15260273E-05  7.81950575E-07
  11703.1748  1.12178959E-05  7.42676718E-07
  11866.3105  1.09174698E-05  7.05326727E-07
  12031.7207  1.06246225E-05  6.69804649E-07
  12199.4365  1.03391803E-05  6.36031132E-07
  12369.4902  1.00609896E-05  6.03908973E-07
  12541.9141  9.78992739E-06  5.73377747E-07
  12716.7412  9.52584469E-06  5.44357647E-07
  12894.0059  9.26857592E-06  5.1677722E-07
  13073.7412  9.01797284E-06  4.90563991E-07
  13255.9824  8.77390357E-06  4.65647048E-07
  13440.7637  8.53619076E-06  4.41974862E-07
  13628.1211  8.30468525E-06  4.1947709E-07
  13818.0889  8.0792579E-06  3.98105726E-07
  14010.7061  7.85978591E-06  3.77799779E-07
  14206.0068  7.64611923E-06  3.58511926E-07
  14404.0312  7.43809551E-06  3.40193196E-07
  14604.8164  7.23558242E-06  3.22791664E-07
  14808.3994  7.03848673E-06  3.06270039E-07
  15014.8203  6.84660336E-06  2.90572473E-07
  15224.1182  6.65984135E-06  2.75667531E-07
  15436.335  6.47809475E-06  2.61514913E-07
  15651.5098  6.30121758E-06  2.48077754E-07
  15869.6816  6.12908434E-06  2.35320258E-07
  16090.8965  5.9615827E-06  2.23209625E-07
  16315.1953  5.79857988E-06  2.11715118E-07
  16542.6191  5.63996355E-06  2.00801423E-07
  16773.2148  5.48563821E-06  1.90442975E-07
  17007.0254  5.3354911E-06  1.80611082E-07
  17244.0938  5.18940124E-06  1.7128022E-07
  17484.4668  5.04726358E-06  1.62426545E-07
  17728.1914  4.90898174E-06  1.54025216E-07
  17975.3125  4.77446065E-06  1.4605186E-07
  18225.8789  4.64358436E-06  1.3848738E-07
  18479.9375  4.51626784E-06  1.31309349E-07
  18737.5371  4.39241876E-06  1.24498897E-07
